# Time (s),Altitude (m),Vertical velocity (m/s),Total velocity (m/s),Vertical acceleration (m/s²),Total acceleration (m/s²),Position East of launch (m),Position North of launch (m),Lateral distance (m),Lateral direction (°),Lateral velocity (m/s),Lateral acceleration (m/s²),Roll rate (°/s),Pitch rate (°/s),Yaw rate (°/s),Vertical orientation (zenith) (°),Lateral orientation (azimuth) (°)
0,0,0,0,0,0,0,0,0,0,0,0,0,0,0,85,90
0.002,0,0,0,0,0,0,0,0,0,0,0,0,0,0,85,90
0.004,0,0,0,0,0,0,0,0,0,0,0,0,0,0,85,90
0.006,0,0,0,0,0,0,0,0,0,0,0,0,0,0,85,90
0.008,0,0,0,0,0,0,0,0,0,0,0,0,0,0,85,90
0.01,0,0,0,0,0,0,0,0,0,0,0,0,0,0,85,90
0.012,0,0,0,0,0,0,0,0,0,0,0,0,0,0,85,90
0.014,0,0,0,0,0,0,0,0,0,0,0,0,0,0,85,90
0.016,0,0,0,0,0,0,0,0,0,0,0,0,0,0,85,90
0.018,0,0,0,0,0,0,0,0,0,0,0,0,0,0,85,90
0.02,0,0,0,0,0,0,0,0,0,0,0,0,0,0,85,90
0.022,0,0,0,0,0,0,0,0,0,0,0,0,0,0,85,90
0.024,1.295463068672691e-7,3.042960918166875e-4,3.043097413552081e-4,0.524249618444382,0.525035452192821,-6.690895405550577e-9,0,6.690895405550581e-9,269.9999979987167,2.88221941631434e-6,0.028715215831319,0,0,0,85,90
0.026,2.35610219082739e-6,0.002206994802225,0.002210687879964,1.378454648789332,1.381801751805786,1.014529748244909e-7,0,1.01452974824491e-7,89.99999803588305,1.277295798712068e-4,0.096119001891493,0,0,0,85,90
0.028,1.009648779451285e-5,0.00581813693627,0.005831013866827,2.232693053333267,2.23866745065468,5.94046334780549e-7,0,5.940463347805508e-7,89.99999556331002,3.873051845060002e-4,0.163443214047262,0,0,0,85,90
0.03,2.676765676024247e-5,0.011137789313162,0.011165169597805,3.086964904582728,3.095572388758532,1.740385460040967e-6,0,1.740385460040978e-6,89.999993421816,7.814482474109123e-4,0.230686132913856,0,0,0,85,90
0.031,3.952011959178933e-5,0.014438327765504,0.014474944153641,3.514113398064123,3.524036749125828,2.642776033725879e-6,0,2.642776033725902e-6,89.99999238201426,0.001028931283864,0.264276436209436,0,0,0,85,90
0.0325,6.563187018598719e-5,0.020711273330893,0.020766148119021,4.849847948190595,4.864351675899302,4.525144498805055e-6,0,4.525144498805113e-6,89.99999087853078,0.001508663220925,0.375355972719,0,0,0,85,90
0.0345,1.179415831632837e-4,0.032192205035138,0.032282094913185,6.631144114987005,6.651765355342901,8.391874181379518e-6,0,8.39187418137967e-6,89.99998906792761,0.002407402533757,0.523364183731829,0,0,0,85,90
0.0365,1.967759933746895e-4,0.047236091339645,0.047373231042408,8.412802605795234,8.439539566867793,1.435202078808876e-5,0,1.435202078808911e-5,89.9999873810463,0.003602040303781,0.671252870870549,0,0,0,85,90
0.0385,3.092617349005778e-4,0.065843657241262,0.066040283140698,10.194823771633791,10.227668929152202,2.299713558755853e-5,0,2.299713558755925e-5,89.99998571647303,0.005092327404905,0.819011593126687,0,0,0,85,90
0.0405,4.625268925229689e-4,0.088015628446291,0.088283960150609,11.977207968029619,12.016150792306359,3.491824925990426e-5,0,3.491824925990561e-5,89.99998402879358,0.00687799164573,0.966627722555348,0,0,0,85,90
0.0425,6.637010031412662e-4,0.113752731360953,0.114104963939964,13.75995553592653,13.80498333600354,5.070582137767021e-5,0,5.070582137767263e-5,89.99998230434761,0.008958733373826,1.114086422437798,0,0,0,85,90
0.0445,9.199150571286311e-4,0.143055693040532,0.143503992550069,15.543066779511546,15.594164958966898,7.094968105172368e-5,0,7.094968105172778e-5,89.99998054260647,0.011334221036461,1.261370625595675,0,0,0,85,90
0.0465,0.00123830149954,0.175925241091435,0.176481740974329,17.326541941383855,17.38369402835883,9.623895865539954e-5,0,9.623895865540615e-5,89.99997874750085,0.014004086698207,1.408461012972886,0,0,0,85,90
0.0485,0.001625994231076,0.212362103521313,0.21303890107812,19.110381175525987,19.173568752942586,1.271620085412656e-4,0,1.271620085412759e-4,89.99997692393536,0.016967921516092,1.555335992613293,0,0,0,85,90
0.0505,0.002090128608683,0.252366947183679,0.25317615615073,20.894400497321918,20.963774881194478,1.643063226664658e-4,0,1.643063226664814e-4,89.99997507653104,0.020225973708313,1.704078967335205,0,0,0,85,90
0.0525,0.002637840463053,0.295939516617307,0.296894112687415,22.678228792726316,22.75428790003321,2.082696878759049e-4,0,2.082696878759276e-4,89.9999732105653,0.023789002769397,1.858912763514454,0,0,0,85,90
0.0545,0.003276265352195,0.343080101554982,0.344193423552794,24.462415886269728,24.545142300185084,2.596686250685392e-4,0,2.596686250685717e-4,89.9999713314025,0.027661466591917,2.013509260846226,0,0,0,85,90
0.0565,0.004012540024208,0.393789418811694,0.395074770513901,26.24696095110686,26.336334066214036,3.191215109479541e-4,0,3.191215109479995e-4,89.9999694422399,0.031842863071013,2.167840602603816,0,0,0,85,90
0.0585,0.004853802658978,0.448068183262844,0.449538827045947,28.031862868309986,28.127858928851882,3.872456608975887e-4,0,3.872456608976508e-4,89.99996754492112,0.036332632293581,2.321876838606291,0,0,0,85,90
0.0605,0.005807192863691,0.505917107223301,0.507586257511316,29.817120190279446,29.919712267307077,4.646572091829518e-4,0,4.646572091830353e-4,89.99996564059357,0.041130152359921,2.475585934051853,0,0,0,85,90
0.0625,0.006879851667032,0.567336899754665,0.569217716312959,31.60273110565866,31.711889034821226,5.519709808159451e-4,0,5.519709808160557e-4,89.99996373003316,0.046234735224787,2.628933780118731,0,0,0,85,90
0.0645,0.008078921511926,0.632328265904461,0.634433846978165,33.38869340648052,33.5043837002038,6.498003551237598e-4,0,6.498003551239041e-4,89.9999618138086,0.051645622561561,2.781884206527425,0,0,0,85,90
0.0665,0.009411546246697,0.700891905882473,0.703235281161862,35.17500445827008,35.2971902013247,7.587571210726567e-4,0,7.587571210728426e-4,89.99995989236656,0.057361981653679,2.934398996246487,0,0,0,85,90
0.0685,0.010884871114523,0.77302851418083,0.775622637573244,36.96166117381551,37.09030190836913,8.794513244055096e-4,0,8.794513244057463e-4,89.99995796607608,0.063382901317741,3.086437902506625,0,0,0,85,90
0.0705,0.01250604274108,0.848738778645868,0.851596520835996,38.74865999129005,38.88371159570535,0.001012491106661,0,0.001012491106662,89.99995603525304,0.069707387863077,3.237958668264344,0,0,0,85,90
0.0725,0.014282209120283,0.928023379511138,0.931157520295422,40.53599685736333,40.677411421818995,0.001158482536154,0,0.001158482536154,89.9999541001732,0.076334361092793,3.388917048226549,0,0,0,85,90
0.0745,0.016220519598079,1.0108829884021,1.014306208787225,42.3236672158801,42.471392917107856,0.001318029431,0,0.001318029431,89.9999521610805,0.083262650351489,3.539266833511656,0,0,0,85,90
0.0765,0.018328124854212,1.097318267324171,1.101043141383483,44.11166600260768,44.265646979507096,0.001491733174291,0,0.001491733174292,89.9999502181915,0.090490990624966,3.688959878981035,0,0,0,85,90
0.0785,0.020612176881971,1.187329867646692,1.191368854131771,45.88455184793906,46.059823381747485,0.001680192521525,0,0.001680192521526,89.99994827169901,0.098018018697264,4.014378117662155,0,0,0,85,90
0.0805,0.023079797628278,1.280886852582578,1.285282166527122,47.6724736223295,47.854574726856306,0.001884361593533,0,0.001884361593534,89.9999467578163,0.106203194272814,4.170801004192473,0,0,0,85,90
0.0825,0.025738108348224,1.378019920439897,1.382785332146117,49.46063286025711,49.64956444257444,0.002105213876482,0,0.002105213876483,89.99994597150003,0.114701236563819,4.327244666090294,0,0,0,85,90
0.0845,0.028594261674839,1.478729534486648,1.483878801074583,51.249017803325735,51.444780725590554,0.002343375144678,0,0.002343375144679,89.99994573827846,0.123512186100977,4.483708074629254,0,0,0,85,90
0.0865,0.031655411143781,1.583016133889525,1.588563001652391,53.037616114602464,53.24021119184667,0.002599471251393,0,0.002599471251395,89.99994592377543,0.132636081306394,4.640190150467579,0,0,0,85,90
0.0885,0.034928711144001,1.690880132594931,1.696838338885457,54.82641491780823,55.03584291587841,0.002874128124557,0,0.002874128124558,89.99994642423505,0.142072958395688,4.796689767076824,0,0,0,85,90
0.0905,0.038421316866252,1.802321918294828,1.80870519304253,56.61540084287631,56.83166247654759,0.003167971762244,0,0.003167971762246,89.99994715936657,0.151822851287512,4.95320575472772,0,0,0,85,90
0.092,0.041188995256008,1.888251398197691,1.894962480786522,57.957254791398164,58.178642089159695,0.003401322418752,0,0.003401322418754,89.99994782671885,0.159340706641689,5.07060276333088,0,0,0,85,90
0.094,0.045083456315166,2.007231647220352,2.014396681914245,61.02321358139473,61.256312343648645,0.003730323842796,0,0.003730323842798,89.99994883227824,0.16975012961466,5.338839400293239,0,0,0,85,90
0.096,0.049222010663383,2.132345121996861,2.139987573428276,64.0904765916277,64.33529180028343,0.004080680662476,0,0.004080680662478,89.9999499382061,0.180696140311939,5.607190141741024,0,0,0,85,90
0.098,0.053616927344589,2.263594406842142,2.271737747454764,67.15901950089324,67.41555604495714,0.004453466280047,0,0.004453466280049,89.99995111668028,0.192178964831784,5.875652859844617,0,0,0,85,90
0.1,0.05828048052194,2.400982036298047,2.409649746067623,70.22881687962531,70.49707955096697,0.004849754545641,0,0.004849754545642,89.99995234516811,0.204198824917874,6.144225329805271,0,0,0,85,90
0.102,0.06322494938109,2.544510500638883,2.553726066889511,73.29985025142828,73.57984377134044,0.005270619748798,0,0.0052706197488,89.99995360540677,0.21675593844098,6.412905935147825,0,0,0,85,90
0.104,0.068462618042221,2.694182239278398,2.703969156526378,76.3720866230799,76.66381558682652,0.005717136610777,0,0.005717136610779,89.9999548826102,0.229850518822151,6.681691789339358,0,0,0,85,90
0.106,0.074005775441603,2.849999630677619,2.860381400472711,79.44549836024008,79.74896725752647,0.006190380274187,0,0.006190380274189,89.99995616484115,0.243482774149762,6.950580474688391,0,0,0,85,90
0.108,0.079866715216803,3.011964997511555,3.022965128321161,82.52005733977781,82.83527055288347,0.00669142629295,0,0.006691426292952,89.99995744250748,0.257652907631548,7.219569530739776,0,0,0,85,90
0.11,0.086057735594256,3.180080605863779,3.191722612967789,85.59573512224726,85.92269692481764,0.00722135062246,5.204298616899359e-9,0.007221350622462,89.99995870795344,0.27236111752413,7.488656469364406,0,0,0,85,90
0.112,0.092591139275558,3.354348664766533,3.366656070157228,88.67250312429304,89.0112176807898,0.007781229609637,5.438417461311677e-9,0.007781229609639,89.99995995512491,0.287607597092788,7.757838789842719,0,0,0,85,90
0.114,0.099479233323191,3.534771326082327,3.547767658365679,91.7503327870735,92.10080415286819,0.00837213998293,5.672536305723995e-9,0.008372139982932,89.99996117929344,0.303392534601096,8.027113993599826,0,0,0,85,90
0.116,0.106734329046345,3.721350684715266,3.735059479011445,94.82919573699814,95.19142785907977,0.008995158842326,5.906655150136312e-9,0.008995158842328,89.9999623768277,0.319716113329415,8.296479598268217,0,0,0,85,90
0.118,0.114368741887467,3.914088779133351,3.928533576975299,97.90906393542272,98.28306065367725,0.009651363649426,6.14077399454863e-9,0.009651363649428,89.99996354500304,0.336578511620585,8.565933150784378,0,0,0,85,90
0.12,0.122394791310157,4.112987592176666,4.128191941406328,100.98990981440977,101.37567486341811,0.010341832217635,6.374892838960948e-9,0.010341832217637,89.99996468184294,0.353979902950637,8.835472239266306,0,0,0,85,90
0.122,0.130824800688934,4.318049052121153,4.334036506783473,104.07170639621258,104.46924340750505,0.01106764270252,6.609011683373265e-9,0.011067642702522,89.99996578598655,0.371920456021854,9.105094503466995,0,0,0,85,90
0.124,0.139671097201359,4.529275033963582,4.546069154198656,107.15442739475348,107.56373989945186,0.011829873592371,6.843130527785583e-9,0.011829873592373,89.99996685657754,0.390400334875198,9.37479764365264,0,0,0,85,90
0.126,0.14894601172292,4.746667360890506,4.764291712824469,110.23804729799576,110.65913872976995,0.012629603699004,7.077249372197901e-9,0.012629603699006,89.9999678931715,0.409419699018824,9.644579427809246,0,0,0,85,90
0.128,0.158661878725,4.970227805892408,4.988705961527705,113.32254143073884,113.75541512900351,0.013467912148836,7.311368216610219e-9,0.013467912148838,89.99996889565831,0.428978703569301,9.914437697136492,0,0,0,85,90
0.13,0.168831036176195,5.199958093483912,5.219313630589571,116.40788599795017,116.85254521122685,0.014345878374251,7.545487061022535e-9,0.014345878374253,89.99996986419711,0.449077499402107,10.184370369838781,0,0,0,85,90
0.132,0.179465825447142,5.435859901491688,5.456116403494186,119.49405810928117,119.95050599865394,0.015264582105271,7.779605905434852e-9,0.015264582105273,89.99997079916228,0.469716233308056,10.454375443270111,0,0,0,85,90
0.134,0.190578591218957,5.677934862873464,5.699115918748668,122.58103578586255,123.04927542845981,0.016225103361548,8.013724749847169e-9,0.01622510336155,89.99997170109823,0.490895048152436,10.724450994528576,0,0,0,85,90
0.136,0.202181681395318,5.926184567534087,5.948313771700671,125.66879795084056,126.14883234328052,0.017228522444673,8.247843594259486e-9,0.017228522444675,89.99997257068158,0.512614083033899,10.994595179628417,0,0,0,85,90
0.138,0.214287447018152,6.180610564107832,6.203711516322428,128.75732440538252,129.24915646712716,0.018275919930798,8.481962438671803e-9,0.0182759199308,89.99997340869015,0.534873473440387,11.264806231400755,0,0,0,85,90
0.139,0.220532693660708,6.310140144961188,6.333735822748481,130.30186816040367,130.79960012837108,0.018816448328357,8.599021860877962e-9,0.018816448328359,89.99997381611809,0.54620584335632,11.399936300284866,0,0,0,85,90
0.1405,0.230145127868873,6.506861764848642,6.531208805927633,131.99373054805204,132.49792515548597,0.019648637523579,8.774610994187201e-9,0.019648637523581,89.99997441307696,0.563416754966927,11.54795507945,0,0,0,85,90
0.1425,0.243424343205215,6.773105837474242,6.798469785099989,134.25052852189918,134.76334373096137,0.020798698556853,9.008729838599518e-9,0.020798698556855,89.99997518295693,0.58671009305264,11.7453993180299,0,0,0,85,90
0.1445,0.257240561027106,7.043864621953135,7.070262727804229,136.5084411609177,137.029881229448,0.021995741219898,9.242848683011835e-9,0.0219957412199,89.9999759236929,0.610398417244601,11.942941077175922,0,0,0,85,90
0.1465,0.27160281298268,7.319140340288634,7.346589864019414,138.7674611984394,139.2975303565202,0.023240555679539,9.476967527424151e-9,0.023240555679541,89.99997663609038,0.634481921942912,12.14057972113698,0,0,0,85,90
0.1485,0.286520135149771,7.598935200289533,7.627453409529226,141.0275816951417,141.5662841463483,0.024533932490148,9.711086371836468e-9,0.02453393249015,89.99997732103225,0.658960800305814,12.338314642801011,0,0,0,85,90
0.1505,0.302001568008137,7.883251395189335,7.912855565533031,143.28879306851456,143.83613297981861,0.025876662591218,9.945205216248785e-9,0.02587666259122,89.99997797945221,0.683835244216373,12.536145003807022,0,0,0,85,90
0.1525,0.318056156398027,8.172091092025001,8.202798506974526,145.55108507851313,146.10706657777098,0.027269537303733,1.01793240606611e-8,0.027269537303735,89.99997861231378,0.709105443265758,12.734069908267172,0,0,0,85,90
0.1545,0.334692949489726,8.465456458594751,8.497284409597592,147.81446188109555,148.37908911203866,0.028713348327507,1.041344290507342e-8,0.028713348327509,89.9999792205938,0.734771587111738,12.932089719780688,0,0,0,85,90
0.1565,0.351921000788608,8.76334965897316,8.79631544544005,150.07891797844022,150.65219506379924,0.030208887741627,1.064756174948574e-8,0.030208887741629,89.99997980526936,0.760833865086305,13.130203957350501,0,0,0,85,90
0.1585,0.369749368117245,9.06577284629817,9.099893775589473,152.3444479231652,152.92637896486264,0.031756948002884,1.088168059389805e-8,0.031756948002886,89.99998036730824,0.78729246556462,13.32841214439245,0,0,0,85,90
0.1605,0.388187113593598,9.372728162822103,9.408021550231247,154.6110462692376,155.20163534839304,0.033358321943866,1.111579943831037e-8,0.033358321943868,89.99998090766091,0.814147575969476,13.526713804440394,0,0,0,85,90
0.1625,0.407243303609217,9.684217739869139,9.720700908603133,156.87870752751965,157.47795870428507,0.035013802771053,1.134991828272269e-8,0.035013802771055,89.9999814272554,0.841399382767576,13.725108457257006,0,0,0,85,90
0.1645,0.426927008807278,10.000243697708399,10.03793397886548,159.14742612578866,159.75534343903107,0.036724184062895,1.1584037127135e-8,0.036724184062896,89.99998192699296,0.869048071458433,13.92359561533597,0,0,0,85,90
0.1665,0.447247304060271,10.32080814535136,10.35972287789577,161.41719637301338,162.0337838398609,0.038490259767856,1.181815597154732e-8,0.038490259767858,89.99998240774515,0.897093826556641,14.122174780776566,0,0,0,85,90
0.1685,0.468213268447236,10.645912893863356,10.686069423503227,163.6871531962009,164.31241152934342,0.040312824202428,1.205227481595964e-8,0.04031282420243,89.9999828703522,0.925536806509887,14.320770269498796,0,0,0,85,90
0.1705,0.489833981682658,10.975556982263331,11.016972650876628,165.95707536093784,166.59100442798567,0.042192671738697,1.228639366037195e-8,0.042192671738699,89.99998331562156,0.954376927243222,14.519362725999502,0,0,0,85,90
0.1725,0.51211852349726,11.30974175091174,11.352433905349516,168.22783113091336,168.87043411610313,0.044130596750169,1.252051250478427e-8,0.044130596750171,89.99998374432761,0.983614306022991,14.71802811350844,0,0,0,85,90
0.1745,0.535075976909458,11.64846885306522,11.692454846358428,170.4994065218062,171.15068655595667,0.046127393897986,1.275463134919659e-8,0.046127393897988,89.9999841572115,1.013249087490408,14.916765208556034,0,0,0,85,90
0.1765,0.558715428216085,11.991739913820846,12.037037105083318,172.77178735452085,173.43174751428887,0.048183858130114,1.29887501936089e-8,0.048183858130115,89.9999845549818,1.043281413823044,15.115572770632165,0,0,0,85,90
0.1785,0.583045966935669,12.339556529704186,12.386182284033039,175.04495923315255,175.71360254020504,0.050300784676381,1.322286903802122e-8,0.050300784676382,89.99998493831471,1.073711424698787,15.314449540258368,0,0,0,85,90
0.1805,0.608076685750844,12.691920268215442,12.739891956588874,177.31890752509318,177.99623694520287,0.052478969043438,1.345698788243354e-8,0.05247896904344,89.99998530785521,1.104539257256134,15.51339423724731,0,0,0,85,90
0.1825,0.633816680449812,13.04883266733782,13.09816766651024,179.59361734313563,180.2796357852085,0.05471920700964,1.369110672684586e-8,0.054719207009642,89.99998566421785,1.135765046051182,15.712405559137142,0,0,0,85,90
0.1845,0.660275049866787,13.410295235011999,13.461010927406448,181.8690735294315,182.56378384447302,0.057022294619831,1.392522557125817e-8,0.057022294619833,89.99998600798762,1.167388923011645,15.911482179787962,0,0,0,85,90
0.1865,0.687460895821363,13.77630944858024,13.828423222178062,184.14526064115856,184.84866562118515,0.059389028180043,1.415934441567049e-8,0.059389028180045,89.9999863397213,1.199411017388222,16.1106227481279,0,0,0,85,90
0.1885,0.715383323056737,14.146876754203431,14.200406002431137,186.4221629377586,187.1342653146603,0.061820204252091,1.439346326008281e-8,0.061820204252092,89.9999866599487,1.231831455703598,16.309825887036542,0,0,0,85,90
0.1905,0.744051439176739,14.521998566254052,14.576960687867377,188.69976436961178,189.42056681397162,0.06431661964806,1.462758210449512e-8,0.064316619648062,89.99998696917338,1.264650361699329,16.509090192354105,0,0,0,85,90
0.192,0.766047364969097,14.806329652721997,14.862377850446991,190.40841441646543,191.13574362642268,0.066232223971768,1.480317123780435e-8,0.066232223971769,89.99998719416043,1.289526108453283,16.65857770138684,0,0,0,85,90
0.194,0.796037913184176,15.182754296915089,15.24024034720388,186.01561824434845,186.72616768656718,0.06884433718434,1.503729008221667e-8,0.068844337184341,89.99998748519786,1.322458997491958,16.27425783514653,0,0,0,85,90
0.196,0.826772522657822,15.550389697012179,15.60928002837222,181.61917924624998,182.31293500572676,0.071521547322005,1.527140892662899e-8,0.071521547322006,89.99998776610252,1.354622927311271,15.889619262929644,0,0,0,85,90
